   freq [Hz]          Ohm  Phase [deg]
   20.000000    25.826851    53.723548
   21.000000    32.431144    49.403878
   22.000000    40.878985    41.170733
   23.000000    51.037832    27.831688
   24.000000    59.639565     8.359379
   25.000000    59.797960   -13.287667
   26.000000    52.388210   -32.071647
   27.000000    43.392674   -44.562092
   28.000000    35.859981   -52.272310
   29.000000    30.199235   -57.143498
   30.000000    26.020951   -60.038587
   31.000000    22.841134   -61.801306
   32.000000    20.379448   -62.780565
   33.000000    18.482886   -63.297072
   34.000000    16.897767   -63.627131
   35.000000    15.585320   -63.611622
   36.000000    14.482013   -63.416659
   37.000000    13.546658   -63.075575
   38.000000    12.740253   -62.587570
   39.000000    12.041989   -62.038818
   40.000000    11.441604   -61.433635
   41.000000    10.905114   -60.786972
   42.000000    10.425224   -60.122005
   43.000000     9.995996   -59.410219
   44.000000     9.610904   -58.654674
   45.000000     9.264758   -57.877767
   46.000000     8.949706   -57.091471
   47.000000     8.668157   -56.273663
   48.000000     8.411793   -55.484162
   49.000000     8.176499   -54.692566
   50.000000     7.956648   -53.908282
   51.000000     7.754933   -53.093039
   52.000000     7.571314   -52.273770
   53.000000     7.404337   -51.475805
   54.000000     7.249340   -50.703821
   55.000000     7.103182   -49.947349
   56.000000     6.966685   -49.197076
   57.000000     6.837518   -48.454426
   58.000000     6.716048   -47.706260
   59.000000     6.602709   -46.955177
   60.000000     6.497006   -46.205784
   61.000000     6.399931   -45.474533
   62.000000     6.306993   -44.759016
   63.000000     6.218806   -44.049726
   64.000000     6.136019   -43.341529
   65.000000     6.057630   -42.645564
   66.000000     5.983499   -41.939592
   67.000000     5.914425   -41.250891
   68.000000     5.849589   -40.566721
   69.000000     5.787877   -39.896776
   70.000000     5.729568   -39.225316
   71.000000     5.675589   -38.572294
   72.000000     5.623514   -37.925725
   73.000000     5.574454   -37.290548
   74.000000     5.528097   -36.662821
   75.000000     5.483682   -36.041137
   76.000000     5.441835   -35.427429
   77.000000     5.402286   -34.820291
   78.000000     5.365243   -34.216909
   79.000000     5.330447   -33.625086
   80.000000     5.297870   -33.051041
   81.000000     5.266876   -32.479581
   82.000000     5.237301   -31.926856
   83.000000     5.209551   -31.378544
   84.000000     5.182657   -30.840399
   85.000000     5.157622   -30.311667
   86.000000     5.133892   -29.793678
   87.000000     5.110803   -29.284066
   88.000000     5.088772   -28.784443
   89.000000     5.068250   -28.287013
   90.000000     5.047982   -27.804361
   91.000000     5.028983   -27.319802
   92.000000     5.011159   -26.840838
   93.000000     4.994638   -26.370105
   94.000000     4.979686   -25.910577
   95.000000     4.964940   -25.465746
   96.000000     4.951319   -25.028830
   97.000000     4.938101   -24.605094
   98.000000     4.924750   -24.191718
   99.000000     4.911594   -23.775835
  100.000000     4.899401   -23.365096
  101.000000     4.887796   -22.955899
  102.000000     4.876833   -22.555023
  103.000000     4.866794   -22.154493
  104.000000     4.857740   -21.762674
  105.000000     4.849517   -21.387082
  106.000000     4.840950   -21.022471
  107.000000     4.832330   -20.660447
  108.000000     4.823827   -20.298723
  109.000000     4.816167   -19.936735
  110.000000     4.809049   -19.581899
  111.000000     4.802511   -19.230103
  112.000000     4.796487   -18.887862
  113.000000     4.791127   -18.548222
  114.000000     4.786110   -18.222367
  115.000000     4.780873   -17.904997
  116.000000     4.775483   -17.590790
  117.000000     4.770062   -17.274270
  118.000000     4.765277   -16.957623
  119.000000     4.761122   -16.643239
  120.000000     4.757164   -16.334071
  121.000000     4.754268   -16.030808
  122.000000     4.751361   -15.733886
  123.000000     4.749008   -15.440071
  124.000000     4.746944   -15.155159
  125.000000     4.745718   -14.879961
  126.000000     4.744133   -14.616248
  127.000000     4.742264   -14.364551
  128.000000     4.739467   -14.116142
  129.000000     4.736552   -13.862581
  130.000000     4.733094   -13.607562
  131.000000     4.730462   -13.342487
  132.000000     4.728341   -13.083200
  133.000000     4.726794   -12.821457
  134.000000     4.726118   -12.565712
  135.000000     4.725848   -12.321575
  136.000000     4.725496   -12.086797
  137.000000     4.725056   -11.854976
  138.000000     4.724475   -11.629136
  139.000000     4.724017   -11.408245
  140.000000     4.722845   -11.190057
  141.000000     4.721776   -10.968572
  142.000000     4.720695   -10.740131
  143.000000     4.720793   -10.517563
  144.000000     4.720999   -10.297195
  145.000000     4.722151   -10.092435
  146.000000     4.722072    -9.897220
  147.000000     4.721360    -9.705375
  148.000000     4.720273    -9.501923
  149.000000     4.719265    -9.294262
  150.000000     4.719086    -9.078964
  151.000000     4.720127    -8.868143
  152.000000     4.721585    -8.666425
  153.000000     4.723235    -8.477015
  154.000000     4.725318    -8.297405
  155.000000     4.726125    -8.132393
  156.000000     4.725779    -7.973536
  157.000000     4.724970    -7.793669
  158.000000     4.723070    -7.614099
  159.000000     4.721999    -7.439947
  160.000000     4.724679    -7.198562
  161.000000     4.724265    -7.071789
  162.000000     4.724588    -6.888400
  163.000000     4.725122    -6.705485
  164.000000     4.725498    -6.532350
  165.000000     4.726224    -6.355834
  166.000000     4.727175    -6.184423
  167.000000     4.728497    -6.011189
  168.000000     4.729308    -5.841792
  169.000000     4.730840    -5.673298
  170.000000     4.732321    -5.504465
  171.000000     4.733989    -5.346014
  172.000000     4.735495    -5.190471
  173.000000     4.736336    -5.032037
  174.000000     4.737642    -4.873775
  175.000000     4.738794    -4.714510
  176.000000     4.740292    -4.553125
  177.000000     4.742127    -4.391280
  178.000000     4.744671    -4.234251
  179.000000     4.747482    -4.083172
  180.000000     4.750171    -3.941089
  181.000000     4.752978    -3.808723
  182.000000     4.754954    -3.679840
  183.000000     4.756265    -3.553237
  184.000000     4.757158    -3.421842
  185.000000     4.757813    -3.288010
  186.000000     4.758525    -3.144804
  187.000000     4.759614    -2.999814
  188.000000     4.761061    -2.855934
  189.000000     4.763051    -2.707912
  190.000000     4.765310    -2.564398
  191.000000     4.768352    -2.429343
  192.000000     4.771607    -2.299743
  193.000000     4.774028    -2.184887
  194.000000     4.775860    -2.067282
  195.000000     4.777685    -1.947766
  196.000000     4.779492    -1.828275
  197.000000     4.780919    -1.715577
  198.000000     4.781743    -1.600444
  199.000000     4.782292    -1.477540
  200.000000     4.782976    -1.346973
  201.000000     4.784084    -1.214893
  202.000000     4.785717    -1.082638
  203.000000     4.787794    -0.949256
  204.000000     4.790004    -0.825510
  205.000000     4.792028    -0.705630
  206.000000     4.793795    -0.582184
  207.000000     4.795409    -0.461392
  208.000000     4.797079    -0.333460
  209.000000     4.799138    -0.204670
  210.000000     4.801487    -0.076179
  211.000000     4.803990     0.051512
  212.000000     4.806961     0.182655
  213.000000     4.810711     0.307863
  214.000000     4.814560     0.424787
  215.000000     4.818102     0.537067
  216.000000     4.822030     0.651646
  217.000000     4.826054     0.756282
  218.000000     4.829947     0.861012
  219.000000     4.834228     0.954776
  220.000000     4.838128     1.047273
  221.000000     4.841774     1.126992
  222.000000     4.844317     1.200744
  223.000000     4.845870     1.281499
  224.000000     4.847104     1.374821
  225.000000     4.848349     1.473170
  226.000000     4.850633     1.578563
  227.000000     4.853721     1.677583
  228.000000     4.856151     1.772640
  229.000000     4.859115     1.862857
  230.000000     4.861819     1.958392
  231.000000     4.865101     2.045663
  232.000000     4.868851     2.124684
  233.000000     4.871554     2.187488
  234.000000     4.872673     2.245065
  235.000000     4.872269     2.313712
  236.000000     4.871398     2.402391
  237.000000     4.871176     2.506494
  238.000000     4.871855     2.612920
  239.000000     4.873211     2.721599
  240.000000     4.875256     2.827731
  241.000000     4.877240     2.925935
  242.000000     4.879231     3.027300
  243.000000     4.881110     3.128699
  244.000000     4.883644     3.232083
  245.000000     4.886532     3.333776
  246.000000     4.889346     3.430971
  247.000000     4.892741     3.527963
  248.000000     4.896300     3.619776
  249.000000     4.899741     3.702827
  250.000000     4.903250     3.785717
  251.000000     4.906396     3.867633
  252.000000     4.909866     3.936167
  253.000000     4.912495     4.007939
  254.000000     4.914498     4.074507
  255.000000     4.916396     4.150875
  256.000000     4.918064     4.221129
  257.000000     4.919600     4.297284
  258.000000     4.920516     4.377029
  259.000000     4.921945     4.461463
  260.000000     4.923568     4.549969
  261.000000     4.925548     4.636581
  262.000000     4.927646     4.720173
  263.000000     4.929524     4.805760
  264.000000     4.931666     4.890520
  265.000000     4.933749     4.975350
  266.000000     4.935938     5.060989
  267.000000     4.937903     5.146941
  268.000000     4.940291     5.235068
  269.000000     4.942697     5.329901
  270.000000     4.946349     5.417526
  271.000000     4.949863     5.497110
  272.000000     4.952949     5.573411
  273.000000     4.956007     5.642571
  274.000000     4.958652     5.723202
  275.000000     4.961492     5.793379
  276.000000     4.964319     5.865535
  277.000000     4.966590     5.940241
  278.000000     4.969177     6.014646
  279.000000     4.971887     6.092854
  280.000000     4.975209     6.168479
  281.000000     4.978660     6.236451
  282.000000     4.981454     6.294495
  283.000000     4.983905     6.355917
  284.000000     4.985497     6.416124
  285.000000     4.986901     6.484130
  286.000000     4.988180     6.557748
  287.000000     4.989754     6.637071
  288.000000     4.991698     6.720510
  289.000000     4.994377     6.803178
  290.000000     4.997460     6.881708
  291.000000     5.000137     6.953383
  292.000000     5.003169     7.026853
  293.000000     5.005904     7.096510
  294.000000     5.008389     7.165684
  295.000000     5.010952     7.239901
  296.000000     5.013727     7.315615
  297.000000     5.016855     7.386208
  298.000000     5.020344     7.459681
  299.000000     5.023534     7.526008
  300.000000     5.027118     7.587413
  301.000000     5.029885     7.648924
  302.000000     5.032724     7.709537
  303.000000     5.035141     7.770411
  304.000000     5.037669     7.837492
  305.000000     5.040234     7.907460
  306.000000     5.043612     7.972411
  307.000000     5.046714     8.031519
  308.000000     5.049764     8.092391
  309.000000     5.052156     8.146738
  310.000000     5.054561     8.208235
  311.000000     5.057319     8.267239
  312.000000     5.059214     8.326171
  313.000000     5.061223     8.386725
  314.000000     5.063278     8.455452
  315.000000     5.065317     8.528930
  316.000000     5.068376     8.596785
  317.000000     5.071437     8.668173
  318.000000     5.074772     8.733838
  319.000000     5.077133     8.803128
  320.000000     5.081947     8.856633
  321.000000     5.084151     8.924168
  322.000000     5.087325     8.981646
  323.000000     5.090543     9.040086
  324.000000     5.093751     9.101914
  325.000000     5.096984     9.155990
  326.000000     5.099906     9.212810
  327.000000     5.103060     9.267936
  328.000000     5.105853     9.322984
  329.000000     5.109102     9.377316
  330.000000     5.111652     9.429089
  331.000000     5.114380     9.485550
  332.000000     5.117025     9.543611
  333.000000     5.120182     9.598008
  334.000000     5.123091     9.656737
  335.000000     5.126263     9.705739
  336.000000     5.128820     9.759147
  337.000000     5.131532     9.813067
  338.000000     5.134352     9.872011
  339.000000     5.137360     9.925631
  340.000000     5.140515     9.982864
  341.000000     5.143681    10.031679
  342.000000     5.146527    10.085747
  343.000000     5.149308    10.136699
  344.000000     5.152132    10.193510
  345.000000     5.155374    10.248322
  346.000000     5.158646    10.300749
  347.000000     5.161924    10.354522
  348.000000     5.165413    10.405510
  349.000000     5.169083    10.451376
  350.000000     5.172271    10.495495
  351.000000     5.175425    10.541730
  352.000000     5.178508    10.583894
  353.000000     5.181246    10.629922
  354.000000     5.184252    10.671925
  355.000000     5.186839    10.724606
  356.000000     5.190246    10.771273
  357.000000     5.193947    10.814219
  358.000000     5.197285    10.854464
  359.000000     5.200271    10.887465
  360.000000     5.202716    10.922998
  361.000000     5.205023    10.965929
  362.000000     5.207511    11.009396
  363.000000     5.210325    11.052253
  364.000000     5.212845    11.095455
  365.000000     5.215944    11.137038
  366.000000     5.218678    11.176314
  367.000000     5.221494    11.217282
  368.000000     5.224327    11.252422
  369.000000     5.226844    11.288938
  370.000000     5.229257    11.326252
  371.000000     5.231762    11.362718
  372.000000     5.233903    11.402578
  373.000000     5.236592    11.440272
  374.000000     5.238905    11.474510
  375.000000     5.241353    11.514844
  376.000000     5.243544    11.547292
  377.000000     5.245671    11.580341
  378.000000     5.247776    11.620486
  379.000000     5.249639    11.653660
  380.000000     5.251905    11.690179
  381.000000     5.253720    11.722733
  382.000000     5.255346    11.757389
  383.000000     5.257046    11.794606
  384.000000     5.258617    11.828354
  385.000000     5.260189    11.866763
  386.000000     5.261431    11.903127
  387.000000     5.262897    11.941866
  388.000000     5.264386    11.983513
  389.000000     5.265876    12.021486
  390.000000     5.266972    12.062298
  391.000000     5.268583    12.106173
  392.000000     5.270065    12.149067
  393.000000     5.271584    12.192506
  394.000000     5.273278    12.237467
  395.000000     5.275282    12.279777
  396.000000     5.276909    12.321666
  397.000000     5.278776    12.361414
  398.000000     5.280644    12.403893
  399.000000     5.282274    12.440955
  400.000000     5.283849    12.478752
  401.000000     5.285203    12.519416
  402.000000     5.286460    12.558741
  403.000000     5.287815    12.605022
  404.000000     5.289298    12.645113
  405.000000     5.290866    12.690046
  406.000000     5.292161    12.731309
  407.000000     5.293740    12.777061
  408.000000     5.295086    12.819673
  409.000000     5.296831    12.863522
  410.000000     5.297959    12.908434
  411.000000     5.299897    12.954763
  412.000000     5.301296    12.997371
  413.000000     5.303179    13.043172
  414.000000     5.304653    13.086439
  415.000000     5.306367    13.129423
  416.000000     5.307991    13.175541
  417.000000     5.309713    13.217893
  418.000000     5.311492    13.261157
  419.000000     5.312907    13.303205
  420.000000     5.314490    13.346697
  421.000000     5.316115    13.390836
  422.000000     5.317569    13.434410
  423.000000     5.319104    13.478333
  424.000000     5.320790    13.523397
  425.000000     5.321994    13.565931
  426.000000     5.323524    13.618040
  427.000000     5.325349    13.662011
  428.000000     5.327060    13.709418
  429.000000     5.328703    13.757356
  430.000000     5.330657    13.804459
  431.000000     5.332415    13.849693
  432.000000     5.334498    13.898636
  433.000000     5.336380    13.941554
  434.000000     5.338299    13.987058
  435.000000     5.340237    14.032593
  436.000000     5.342138    14.077102
  437.000000     5.344159    14.120660
  438.000000     5.345971    14.166096
  439.000000     5.347959    14.209539
  440.000000     5.349864    14.254805
  441.000000     5.352048    14.300373
  442.000000     5.354051    14.341729
  443.000000     5.356050    14.382252
  444.000000     5.357971    14.427024
  445.000000     5.359465    14.468214
  446.000000     5.361622    14.511708
  447.000000     5.363325    14.555476
  448.000000     5.365131    14.599570
  449.000000     5.367064    14.640313
  450.000000     5.368825    14.682897
  451.000000     5.370202    14.726910
  452.000000     5.372000    14.773207
  453.000000     5.373783    14.817794
  454.000000     5.375608    14.864208
  455.000000     5.377304    14.909622
  456.000000     5.379284    14.958270
  457.000000     5.381219    15.004737
  458.000000     5.383339    15.049889
  459.000000     5.385539    15.097498
  460.000000     5.387469    15.142443
  461.000000     5.389543    15.188080
  462.000000     5.391921    15.234055
  463.000000     5.394066    15.280805
  464.000000     5.396301    15.325666
  465.000000     5.398739    15.368694
  466.000000     5.401030    15.414837
  467.000000     5.403438    15.457088
  468.000000     5.405797    15.500026
  469.000000     5.408027    15.541248
  470.000000     5.410383    15.585022
  471.000000     5.412588    15.624965
  472.000000     5.414764    15.671671
  473.000000     5.417327    15.709902
  474.000000     5.419569    15.750353
  475.000000     5.421302    15.793320
  476.000000     5.423438    15.831362
  477.000000     5.425569    15.877659
  478.000000     5.427258    15.922708
  479.000000     5.427647    15.951008
  480.000000     5.432852    16.039515
  481.000000     5.434345    16.050776
  482.000000     5.436864    16.091326
  483.000000     5.439361    16.134687
  484.000000     5.441525    16.177394
  485.000000     5.444202    16.215573
  486.000000     5.446312    16.255305
  487.000000     5.448841    16.294498
  488.000000     5.451099    16.336044
  489.000000     5.453284    16.375503
  490.000000     5.455621    16.417146
  491.000000     5.457810    16.457538
  492.000000     5.460130    16.497667
  493.000000     5.462499    16.539986
  494.000000     5.464704    16.579092
  495.000000     5.466897    16.619939
  496.000000     5.469155    16.661671
  497.000000     5.471601    16.703591
  498.000000     5.473915    16.745658
  499.000000     5.476264    16.784682
  500.000000     5.478671    16.828453
  501.000000     5.481163    16.868607
  502.000000     5.483577    16.909004
  503.000000     5.486378    16.951625
  504.000000     5.488804    16.986568
  505.000000     5.491213    17.023575
  506.000000     5.493404    17.061995
  507.000000     5.495296    17.102829
  508.000000     5.497845    17.143492
  509.000000     5.500107    17.185565
  510.000000     5.502469    17.224445
  511.000000     5.505032    17.270028
  512.000000     5.507732    17.305413
  513.000000     5.510087    17.348508
  514.000000     5.512818    17.388491
  515.000000     5.515462    17.427595
  516.000000     5.518209    17.466537
  517.000000     5.520736    17.503495
  518.000000     5.523317    17.544698
